##TITLE=3fc
##FORMAT=SPECTACLE-ASCII Anything
##DATA TYPE=INFRARED SPECTRUM
##SECOND TYPE=Anything
##DATE=Anything
##TIME=Anything
##SPECTROMETER/DATA SYSTEM=Anything
##XUNITS=1/CM
##YUNITS=%T
##YFACTOR=Anything
##FIRSTX=399.264912
##LASTX=4000.364384
##NPOINTS=1868.000000
##FIRSTY=Anything
##XYDATA=( Y..Y )
98.002594 
32.287267 
50.888693 
115.817716 
59.599128 
169.217397 
211.603398 
88.652623 
49.157720 
5.986287 
40.133845 
64.723207 
61.424318 
23.275458 
56.755663 
17.573848 
20.359612 
40.889365 
50.002285 
54.321524 
65.126555 
56.771136 
33.666877 
68.787927 
120.581931 
81.537168 
76.470162 
102.986344 
156.703033 
99.177627 
164.830361 
89.214796 
136.063189 
35.536755 
14.677174 
12.031908 
92.446507 
89.772096 
159.380014 
363.138533 
422.184347 
14.573287 
46.897170 
11.377965 
30.637784 
65.822201 
37.433490 
34.927690 
104.251803 
109.515765 
88.414315 
60.932594 
88.900521 
56.409571 
391.003646 
2210.499116 
119.127644 
45.260072 
52.697583 
59.323301 
55.023537 
35.502941 
52.829914 
95.988941 
122.477745 
103.355819 
111.902660 
120.638351 
99.204557 
90.803437 
92.688685 
81.935663 
79.405616 
76.740966 
71.784328 
78.978557 
81.271610 
61.362113 
65.373402 
76.375749 
83.341216 
83.196070 
80.004684 
86.361234 
93.663046 
87.241656 
86.299657 
89.640714 
86.496342 
79.295104 
75.304511 
82.055936 
88.390420 
84.699199 
78.295770 
79.415353 
76.576602 
74.852280 
76.620308 
78.074678 
75.979238 
73.823525 
75.129005 
75.848014 
77.066284 
77.131623 
75.013364 
74.786985 
76.364163 
75.764772 
75.461307 
76.688592 
75.740297 
75.287143 
74.593682 
73.744471 
72.078175 
72.454967 
73.794818 
72.077644 
71.093480 
70.967204 
70.087667 
68.442570 
64.560388 
59.612455 
54.968663 
46.721898 
39.973730 
48.227201 
67.427397 
76.761907 
76.871506 
75.519036 
74.923848 
73.893890 
73.146623 
72.656648 
72.012229 
71.121198 
69.998754 
69.436347 
69.213317 
68.429669 
67.041095 
64.944714 
62.001094 
58.456308 
54.372853 
49.009127 
41.574937 
39.001295 
47.816633 
59.426488 
65.156712 
67.154885 
67.775292 
67.772986 
66.669185 
65.324564 
64.520035 
63.881189 
63.259394 
62.739047 
62.472656 
62.309719 
61.736550 
60.776349 
59.653177 
58.692237 
57.433856 
55.846380 
54.030186 
52.062543 
50.044527 
47.774893 
45.136194 
42.108861 
39.950101 
45.133025 
54.102595 
53.254129 
46.454155 
40.049938 
33.958268 
27.484718 
21.738556 
17.883147 
16.359163 
19.369173 
29.102061 
42.305678 
51.550575 
55.870616 
58.866574 
62.099600 
66.388452 
73.772893 
81.802017 
86.648465 
88.887039 
89.629728 
89.323471 
87.953392 
84.736936 
82.478025 
85.324802 
88.640474 
89.661775 
89.470522 
89.157519 
88.751812 
88.282149 
87.901433 
87.481036 
87.045733 
86.750933 
86.180047 
85.635342 
85.030013 
84.182062 
83.032143 
81.533687 
79.823605 
78.457638 
77.446039 
76.647105 
75.452169 
73.055996 
69.623400 
65.531557 
61.152823 
56.846879 
54.711577 
57.587254 
65.155157 
73.589204 
79.460666 
82.568352 
84.035126 
84.776084 
85.275153 
85.340143 
85.366608 
85.146383 
84.622787 
84.126198 
83.430826 
82.776516 
83.155013 
83.968791 
84.313631 
84.464961 
84.320110 
83.994271 
83.822574 
83.533131 
83.202320 
83.126098 
83.009806 
82.806623 
82.601246 
82.434916 
82.386053 
82.175714 
81.850000 
81.670751 
81.428036 
81.130201 
80.746531 
80.388743 
79.798579 
78.870760 
77.886525 
77.068027 
75.799405 
73.766092 
70.903658 
67.736902 
66.496133 
69.109097 
73.730571 
77.361689 
79.141078 
79.488735 
78.733017 
76.911631 
73.639340 
69.797587 
68.420914 
71.296929 
75.640155 
78.200465 
78.433754 
78.132767 
79.552255 
81.313376 
82.003683 
82.057537 
81.938023 
81.805131 
81.615740 
81.490796 
81.372908 
81.175318 
80.859027 
80.528938 
80.038629 
79.011779 
77.264473 
75.856257 
76.425881 
77.936682 
78.611363 
78.807548 
79.096542 
79.338785 
79.435444 
79.508776 
79.444021 
79.141160 
78.719325 
78.215137 
77.514325 
76.475039 
74.428774 
71.727372 
72.160624 
76.531630 
79.611511 
80.360669 
80.417827 
80.335262 
80.182395 
79.993099 
79.709891 
79.496158 
79.401651 
79.300918 
79.206962 
79.191793 
79.073747 
78.940617 
78.877519 
78.780438 
78.682840 
78.644376 
78.582418 
78.645827 
78.493172 
78.149842 
77.951248 
77.709521 
77.111273 
76.319568 
75.482106 
74.843202 
74.428971 
74.122618 
73.616137 
72.740129 
71.178691 
68.300625 
64.529214 
63.299124 
66.668248 
70.332255 
71.363721 
70.259992 
67.272837 
64.066967 
65.235321 
70.505409 
74.292349 
75.497053 
75.595978 
75.403120 
75.137738 
74.764872 
74.265391 
73.608584 
72.792958 
71.728906 
70.189331 
68.119749 
65.219426 
61.346902 
56.927412 
54.417846 
57.106180 
64.104971 
70.491673 
73.972856 
75.345966 
75.667734 
75.500516 
75.263776 
74.953725 
74.454093 
73.459695 
71.411267 
68.770951 
68.852614 
71.019348 
71.576154 
70.843789 
69.665204 
67.974122 
65.547834 
62.635698 
59.733364 
57.715263 
58.611402 
63.353132 
68.830372 
71.969509 
73.002075 
73.045242 
72.627943 
71.955307 
71.164500 
70.601502 
70.625646 
70.902911 
71.062102 
71.086562 
70.807200 
70.035831 
68.909855 
67.514772 
65.894476 
64.080015 
62.465236 
61.935523 
63.182930 
66.196237 
69.455900 
71.198076 
71.516610 
71.351354 
71.036389 
70.582291 
69.835433 
68.879359 
67.876575 
67.015922 
66.308156 
65.675030 
64.871936 
63.613894 
61.144201 
57.214900 
55.543457 
61.239726 
67.596263 
68.693565 
67.452680 
65.888326 
64.413922 
62.882451 
61.508011 
60.444324 
59.871539 
59.398849 
58.863135 
58.255959 
57.664671 
57.055386 
56.519844 
56.128561 
56.283020 
57.023600 
58.708554 
61.701552 
66.514049 
71.888111 
76.233515 
78.630343 
78.822966 
76.684949 
72.412178 
67.030220 
62.363508 
59.646000 
58.958571 
59.508483 
60.661713 
62.070643 
63.936619 
65.025957 
64.830282 
63.622842 
64.158133 
69.808861 
75.941813 
77.137311 
73.819930 
68.291718 
61.981318 
57.386844 
60.306803 
69.092048 
79.152373 
85.785545 
87.370408 
86.622897 
86.303543 
86.001766 
85.412925 
84.748818 
84.161259 
83.398430 
82.450159 
82.068745 
81.761322 
80.871687 
79.619377 
78.708905 
78.147741 
77.807091 
77.240141 
75.730613 
74.151563 
72.205681 
68.833050 
64.288504 
59.798570 
55.833633 
54.724799 
61.137614 
66.701285 
69.088246 
70.073461 
69.988853 
70.057317 
70.896189 
71.818449 
72.089790 
71.622883 
71.065695 
69.543504 
67.175329 
64.458023 
61.543235 
58.514734 
56.626860 
54.662117 
52.959094 
51.373874 
51.616046 
51.748730 
51.954024 
53.449176 
59.375169 
66.345392 
73.569359 
79.880319 
84.787520 
84.869460 
82.192967 
78.051088 
75.581730 
78.868737 
82.089294 
82.620038 
82.044132 
82.835955 
83.478133 
82.998194 
82.015764 
81.883702 
81.683226 
81.273543 
80.173017 
77.276717 
76.359154 
77.223117 
77.193919 
76.637110 
75.419940 
74.867404 
73.938904 
72.820817 
72.737994 
72.260882 
71.644453 
71.232163 
70.171296 
68.474484 
67.297185 
66.044786 
63.427537 
61.017362 
60.602890 
60.277449 
60.211830 
59.302133 
58.075535 
57.091168 
55.962730 
55.073514 
56.362281 
60.526034 
63.466322 
68.314840 
73.597311 
75.401520 
75.854665 
75.478412 
73.967852 
70.475642 
67.359340 
66.274113 
65.225792 
63.961125 
61.715316 
58.924534 
56.620306 
55.974328 
56.167055 
56.511524 
56.876972 
57.103545 
56.556862 
55.560609 
54.348634 
53.024106 
51.927730 
51.750359 
52.345125 
54.376671 
60.897713 
68.431359 
69.240412 
66.766776 
60.861237 
56.402724 
51.439377 
47.212086 
44.367485 
42.658180 
41.470622 
41.201306 
41.226651 
41.988565 
43.039932 
44.986191 
50.290615 
54.908274 
57.427864 
65.498334 
74.867433 
78.625621 
82.535529 
84.703137 
85.312082 
85.970576 
85.974714 
85.239920 
85.072374 
85.346137 
84.563457 
82.588938 
80.582071 
76.839446 
73.129284 
69.025107 
65.678066 
63.539317 
60.886726 
59.493065 
60.072035 
64.461729 
72.400553 
75.672046 
78.533303 
78.781119 
78.574955 
79.184476 
80.276417 
81.194273 
81.680529 
81.971182 
83.963424 
88.138519 
90.682287 
91.921897 
93.208509 
93.895918 
93.983629 
93.422731 
92.850943 
92.688843 
93.920203 
94.056975 
93.847097 
93.515868 
93.139416 
93.006755 
92.626541 
92.286527 
93.118909 
94.000678 
93.953044 
93.336515 
93.306944 
93.058108 
93.139333 
93.300080 
92.854382 
92.365462 
91.986156 
91.889467 
92.547333 
92.519973 
92.215813 
91.952406 
91.974507 
91.648161 
91.454572 
91.169345 
90.651902 
90.250046 
90.861063 
91.164271 
91.450225 
91.464233 
91.617390 
92.051987 
92.319853 
92.145749 
91.963704 
91.919751 
92.261656 
92.238599 
92.003900 
91.972530 
91.926196 
91.628643 
91.269006 
91.183472 
90.959570 
90.844733 
91.087993 
90.706687 
90.208208 
89.758667 
89.523320 
89.183894 
89.192476 
89.514876 
89.951608 
90.317053 
90.511926 
90.602367 
90.648251 
90.462134 
90.516177 
90.446648 
90.169150 
89.596149 
88.921797 
88.668130 
89.152428 
89.344195 
89.359113 
89.018445 
88.827007 
88.996167 
89.238252 
89.366357 
89.766142 
89.996014 
90.081668 
89.879915 
89.767322 
89.868155 
89.930320 
89.621550 
89.485969 
89.439696 
89.276188 
89.021668 
89.037573 
89.312720 
89.387684 
89.261527 
89.279177 
89.544364 
89.612042 
89.496608 
90.064492 
90.204248 
89.720171 
89.388588 
89.609916 
89.718887 
89.649312 
89.490451 
89.330956 
89.216635 
89.554560 
89.569202 
89.683367 
89.751887 
89.478452 
89.318987 
89.188740 
88.652059 
88.465895 
88.334896 
87.816781 
87.092111 
87.798886 
88.842772 
89.840758 
90.459445 
90.490616 
90.194487 
89.611957 
89.161600 
89.379878 
89.692568 
89.348224 
88.486400 
88.523508 
88.301169 
88.198835 
87.939827 
87.917687 
88.490509 
89.086088 
89.286410 
89.712889 
89.648598 
89.839107 
89.957808 
89.790747 
89.624323 
89.702204 
89.255857 
89.095719 
88.983638 
89.401538 
89.686907 
89.173531 
89.009611 
89.362401 
89.228190 
89.256258 
88.947814 
88.588618 
89.109051 
89.679708 
89.155923 
88.914046 
88.941356 
88.980861 
88.948421 
88.902588 
88.695994 
88.820872 
89.059838 
89.014485 
88.909635 
88.997212 
89.067059 
89.147511 
88.902848 
88.388534 
88.001836 
87.993139 
88.063173 
88.368005 
88.477183 
88.554435 
88.687370 
88.617906 
88.626816 
88.789376 
88.784874 
88.789760 
88.879610 
88.807430 
88.710449 
88.625800 
88.559311 
88.680278 
88.604706 
88.314586 
88.481035 
88.949812 
88.900808 
88.939977 
89.018169 
88.963946 
89.135284 
89.189449 
89.251372 
89.352660 
89.320468 
89.177715 
89.018447 
88.965344 
89.118889 
88.897830 
88.606908 
88.609505 
89.030363 
89.727560 
90.249054 
90.291736 
89.564084 
88.802199 
88.511164 
88.669282 
88.789144 
88.662822 
88.490976 
88.540342 
88.673805 
88.801817 
89.108744 
89.040294 
88.419176 
88.163842 
87.842063 
87.744527 
87.860758 
87.934562 
87.803629 
88.154891 
88.429741 
88.109889 
88.055374 
87.848009 
87.724142 
87.660120 
87.593505 
87.672291 
87.749343 
88.029661 
88.139554 
88.043183 
87.853505 
87.744527 
87.690337 
87.992414 
88.027831 
87.916203 
87.864519 
88.371953 
88.538179 
88.262150 
88.130343 
88.284348 
87.963271 
87.849133 
87.943404 
87.648207 
87.573784 
87.894342 
87.923978 
87.968820 
88.049152 
88.251898 
88.161173 
87.907813 
87.912065 
88.100837 
88.262710 
88.157150 
88.082207 
88.079753 
88.172230 
88.082830 
87.955913 
87.955986 
87.900022 
87.747031 
87.748861 
87.818148 
87.819547 
87.879995 
87.701247 
87.396875 
87.329283 
87.326087 
87.292931 
87.395420 
87.448738 
87.540321 
87.662326 
87.529673 
87.429117 
87.462539 
87.294126 
87.041041 
87.000190 
87.296661 
87.700464 
87.731907 
87.657084 
88.085785 
88.520122 
88.708870 
88.706174 
88.490599 
88.157519 
88.253797 
87.989676 
87.523300 
87.737308 
88.137293 
88.229059 
88.051566 
88.148763 
88.621681 
89.241632 
89.479028 
88.832418 
88.604152 
88.676120 
88.467743 
87.912412 
87.526572 
87.501143 
87.546701 
87.468780 
87.566886 
87.679555 
87.759689 
87.852048 
87.916227 
87.803515 
87.873490 
87.797575 
87.690402 
87.634086 
87.498388 
87.334826 
87.280441 
87.255479 
87.285499 
87.296566 
87.442977 
87.595813 
87.715796 
87.660445 
87.471317 
87.511710 
87.585983 
87.611755 
87.819151 
88.001181 
87.988744 
87.918687 
87.989916 
87.991324 
87.976290 
87.893104 
87.898949 
88.082833 
87.925488 
87.703286 
87.692698 
87.706709 
87.653645 
87.442414 
87.160963 
87.010939 
87.068428 
87.257744 
87.585069 
87.861906 
88.081991 
87.952663 
87.788494 
87.955773 
88.199926 
88.144211 
88.176191 
88.075869 
87.832019 
87.725252 
87.695253 
87.599235 
87.424737 
87.335757 
87.430055 
87.447982 
87.484308 
87.527167 
87.628672 
87.743130 
87.749591 
87.617226 
87.624646 
87.623830 
87.659242 
87.710408 
87.653480 
87.526636 
87.412313 
87.329857 
87.564902 
87.809553 
87.754339 
87.578111 
87.691300 
87.723327 
87.789398 
87.844995 
87.754432 
87.826687 
87.762698 
87.703269 
87.697022 
87.642275 
87.694811 
87.763005 
87.777838 
87.732580 
87.633587 
87.544778 
87.623063 
87.589409 
87.475497 
87.435612 
87.489886 
87.617717 
87.742602 
87.626153 
87.646163 
87.733381 
87.811294 
87.887103 
87.905201 
87.833120 
87.848941 
87.892291 
87.846739 
87.745274 
87.637526 
87.709566 
87.967458 
88.077369 
88.034368 
87.957066 
87.975039 
88.006628 
88.011072 
88.045389 
88.065201 
88.015883 
87.985681 
87.972308 
87.949936 
88.075809 
88.195654 
88.103723 
88.108263 
88.150816 
88.143801 
88.120925 
88.073787 
87.869195 
87.807808 
87.898060 
87.940422 
87.878110 
87.976807 
88.235311 
88.259171 
88.051553 
87.938914 
87.902900 
87.871312 
87.912084 
87.907018 
87.895965 
87.978388 
88.064477 
87.995065 
87.872867 
87.769508 
87.710955 
87.759473 
87.814755 
87.749264 
87.721120 
87.755905 
87.673454 
87.766251 
87.898835 
87.885949 
87.722484 
87.563743 
87.655278 
87.669614 
87.627166 
87.676600 
87.704522 
87.737424 
87.698944 
87.602890 
87.591708 
87.574639 
87.606326 
87.775561 
87.921927 
87.972929 
87.977768 
87.984757 
87.934810 
87.926293 
87.913565 
87.822948 
87.713250 
87.689464 
87.652111 
87.622906 
87.605572 
87.549666 
87.436777 
87.325810 
87.170540 
86.914445 
86.690225 
86.761964 
87.035140 
87.368358 
87.628228 
87.734539 
87.776980 
87.831888 
87.874303 
87.745074 
87.577745 
87.488262 
87.468363 
87.497451 
87.521002 
87.621030 
87.715298 
87.783771 
87.667577 
87.581129 
87.683827 
87.694414 
87.550019 
87.437065 
87.317991 
87.190831 
87.010842 
86.811330 
86.567301 
86.307988 
86.226554 
86.343853 
86.493646 
86.623708 
86.835381 
86.934709 
86.912417 
87.088575 
87.246621 
87.240265 
87.184533 
87.100851 
87.078091 
86.986616 
86.759630 
86.440659 
86.017737 
85.323126 
84.440698 
83.380283 
82.211902 
80.895836 
79.822719 
79.803443 
81.203120 
83.340609 
85.112562 
86.204634 
86.682106 
87.086371 
87.384144 
87.478752 
87.644680 
87.658414 
87.631087 
87.688248 
87.727692 
87.874398 
88.009166 
88.054598 
88.074906 
88.001990 
88.048382 
88.166920 
88.224395 
88.125269 
88.037475 
88.012001 
88.134757 
88.046942 
88.040576 
88.238020 
88.407055 
88.360120 
88.147547 
88.061445 
87.926945 
88.049489 
88.132496 
88.028423 
87.903223 
87.777772 
87.649380 
87.575588 
87.605191 
87.625926 
87.840219 
87.819118 
87.756903 
87.891426 
87.735529 
87.505952 
87.490383 
87.492918 
87.412993 
87.343742 
87.212524 
87.156514 
87.290783 
87.526963 
87.565915 
87.546786 
87.535331 
87.407544 
87.431288 
87.513569 
87.460135 
87.230650 
87.173177 
87.336246 
87.352240 
87.240659 
87.116588 
87.095115 
87.206298 
87.154837 
87.296757 
87.262708 
87.091140 
87.065391 
87.083743 
86.851608 
86.610240 
86.276849 
86.300911 
86.517698 
86.339162 
86.072884 
86.074652 
86.159797 
86.074204 
85.976532 
85.839316 
85.238536 
84.694643 
84.066687 
82.994899 
81.900716 
81.183287 
80.861882 
80.630383 
80.496889 
80.843159 
82.051145 
83.739735 
84.849566 
85.333362 
85.835979 
86.512530 
86.912705 
86.831672 
86.527220 
86.407520 
86.395066 
86.484440 
86.529396 
86.754027 
86.844456 
86.626475 
86.669588 
86.773859 
86.791782 
86.714662 
86.502223 
86.360206 
86.382403 
86.548464 
86.761626 
86.729126 
86.716966 
86.861857 
86.896095 
86.922810 
87.025459 
87.200346 
87.428148 
87.635431 
87.785030 
87.662571 
87.607296 
87.760590 
87.930807 
87.938359 
87.910378 
87.933199 
87.951501 
87.920754 
87.895081 
87.673834 
87.677976 
87.975384 
88.052304 
88.107048 
88.122485 
88.253515 
88.336061 
88.209726 
88.029354 
88.040650 
88.108469 
88.248487 
88.275966 
88.274548 
88.456797 
88.416925 
88.446496 
88.559585 
88.661897 
88.565992 
88.293938 
88.225735 
88.214833 
88.165648 
88.178784 
88.266727 
88.216707 
88.086544 
88.101449 
88.140310 
88.136409 
87.973139 
87.611441 
87.559973 
87.771113 
87.789728 
87.927663 
87.834039 
87.926235 
87.922556 
87.754761 
87.699049 
87.639134 
87.559369 
87.593898 
87.860713 
87.957095 
88.039174 
88.056227 
88.212923 
88.528077 
88.446904 
88.181254 
88.033341 
88.238803 
88.429579 
88.237933 
88.137413 
88.091772 
87.884201 
87.868085 
87.899441 
87.931244 
87.989245 
88.197710 
88.328538 
88.359679 
88.385075 
88.122884 
88.088723 
88.194439 
88.272151 
88.339733 
88.399715 
88.491918 
88.409442 
88.305578 
88.249987 
88.440471 
88.620990 
88.398921 
88.097813 
88.117987 
88.223193 
88.301223 
88.534037 
88.641494 
88.799375 
88.854421 
88.694009 
88.732824 
88.902444 
88.972960 
88.905578 
88.769330 
88.675264 
88.772047 
88.944010 
88.866291 
88.627009 
88.525599 
88.819333 
88.757714 
88.516972 
88.615725 
88.577830 
88.305809 
88.357934 
88.574557 
88.548328 
88.154295 
87.845501 
87.704085 
87.594522 
87.610177 
87.559634 
87.598570 
87.752371 
88.014018 
88.202065 
88.414035 
88.513683 
88.595063 
88.657924 
88.654679 
88.672655 
88.771879 
88.693542 
88.482305 
88.323850 
88.357927 
88.440053 
88.734541 
88.813511 
88.904289 
88.925587 
88.707655 
88.608858 
88.639358 
88.680409 
88.697848 
88.618713 
88.367096 
88.412870 
88.725844 
88.727891 
88.954483 
89.138208 
88.979290 
88.980608 
88.840378 
88.769372 
88.724956 
88.486998 
88.839952 
89.246064 
89.036023 
88.813547 
88.838383 
88.911972 
88.947211 
88.919008 
88.898094 
88.916380 
88.801626 
88.917209 
89.191170 
89.139940 
88.850468 
88.752760 
88.597223 
88.538784 
88.701878 
88.704220 
88.666311 
88.715432 
88.921076 
88.931875 
88.670289 
88.663264 
88.703857 
88.280710 
87.929052 
88.204981 
88.613198 
88.627735 
88.755836 
88.973920 
89.124970 
89.207413 
89.136900 
88.591367 
87.830279 
87.722305 
87.986017 
88.155619 
88.430644 
88.616521 
88.515528 
88.429971 
88.797347 
88.841051 
88.345030 
87.666971 
87.181368 
87.429938 
87.823488 
87.829065 
87.973528 
88.320474 
88.254396 
87.898347 
87.928530 
87.729060 
87.070096 
86.513560 
87.173449 
87.864718 
88.055604 
88.180195 
88.440655 
88.469990 
88.398185 
88.273022 
87.739481 
87.083703 
87.216989 
87.762216 
87.604356 
87.437862 
87.503110 
87.684594 
87.678614 
87.802367 
87.868094 
87.824411 
87.700824 
87.979478 
87.963476 
87.504024 
87.425772 
87.310308 
86.928161 
87.461939 
88.076173 
87.719384 
86.855632 
86.553309 
87.571025 
87.828181 
87.913850 
87.920668 
87.591829 
87.600573 
87.607885 
87.307856 
86.359956 
84.880799 
84.994522 
86.844685 
87.406978 
87.023489 
87.480418 
88.067259 
88.339301 
88.455449 
88.291036 
87.849473 
87.212771 
86.791653 
86.841166 
86.151726 
86.837702 
87.982966 
88.262135 
87.993229 
87.694788 
87.368563 
86.685396 
86.342859 
87.291270 
87.839202 
87.936632 
88.065150 
88.023094 
87.712332 
87.720718 
87.528766 
87.207650 
86.683564 
85.962734 
86.768224 
87.710152 
87.707197 
87.301809 
87.057020 
86.782795 
86.994355 
87.264061 
87.398653 
86.704569 
85.873243 
85.363792 
85.923501 
86.870560 
87.047560 
86.735103 
86.222576 
86.926755 
86.795939 
85.937134 
85.847155 
87.044364 
87.344539 
87.054391 
87.350343 
88.084199 
87.750899 
87.333233 
87.542084 
87.527295 
87.666207 
88.135548 
88.339360 
88.223432 
87.872223 
87.829392 
87.771999 
87.731253 
88.136948 
88.198046 
88.084202 
87.958842 
87.713869 
87.383990 
87.256547 
86.994048 
87.167742 
87.664852 
87.298197 
87.662522 
88.201454 
87.877824 
87.235104 
86.720677 
87.191873 
86.715103 
86.492153 
87.571113 
87.511045 
87.388384 
87.622750 
87.631513 
87.526689 
86.841680 
86.352165 
86.923464 
87.394019 
87.994719 
87.996522 
87.746875 
87.347394 
86.726132 
85.994297 
86.168314 
87.255586 
87.671093 
87.706602 
87.212516 
86.705079 
87.077482 
87.278657 
86.924252 
87.280871 
87.322552 
87.693303 
87.898639 
87.396358 
87.202409 
87.621608 
87.435534 
87.912787 
87.882175 
87.221306 
87.301213 
87.872806 
87.870872 
87.391776 
87.190773 
86.788889 
86.376549 
87.448278 
88.439195 
88.490792 
88.248321 
88.167192 
87.913114 
87.695308 
87.688386 
87.673800 
87.387555 
87.462291 
87.863182 
87.923160 
87.795390 
88.103819 
88.594809 
88.349477 
88.222809 
88.140389 
88.110263 
88.164498 
87.864520 
87.845197 
88.135880 
88.196051 
88.183113 
88.187486 
88.329663 
88.443419 
88.453425 
88.388525 
88.524119 
88.510191 
88.267780 
88.142249 
88.238825 
88.275318 
88.427736 
88.485847 
88.435088 
88.370114 
88.337595 
88.249431 
88.178676 
88.047044 
88.131917 
88.120924 
88.428196 
88.547632 
88.287214 