##TITLE=8ami
##FORMAT=SPECTACLE-ASCII Anything
##DATA TYPE=INFRARED SPECTRUM
##SECOND TYPE=Anything
##DATE=Anything
##TIME=Anything
##SPECTROMETER/DATA SYSTEM=Anything
##XUNITS=1/CM
##YUNITS=%T
##YFACTOR=Anything
##FIRSTX=399.264912
##LASTX=4000.364384
##NPOINTS=1868.000000
##FIRSTY=Anything
##XYDATA=( Y..Y )
220.788824 
43.433977 
57.668462 
326.118335 
136.617796 
177.238403 
231.167673 
72.667892 
83.720679 
70.623420 
127.093274 
89.926129 
48.790087 
26.932763 
75.596231 
17.331250 
15.662820 
107.429177 
187.080605 
98.799323 
8.424632 
40.707500 
29.001234 
68.331801 
163.598567 
93.346119 
65.592690 
57.378463 
208.362181 
90.577209 
116.751813 
17.641843 
56.516906 
25.377402 
49.288265 
87.706395 
187.337429 
62.532935 
98.914919 
267.706781 
505.287938 
101.079749 
98.064580 
93.882305 
75.309807 
70.131407 
60.282785 
97.448464 
152.874434 
140.705601 
23.751047 
35.541650 
149.684377 
92.976481 
167.230474 
1007.792736 
112.292768 
42.461680 
20.538109 
19.014157 
39.328163 
53.662200 
55.849711 
97.727926 
110.394656 
79.447662 
99.731332 
117.527705 
80.234459 
66.781315 
62.718209 
58.476904 
59.850126 
61.488256 
71.359746 
70.383207 
63.848473 
55.911011 
55.428935 
57.191959 
55.499481 
48.957331 
49.482014 
58.288189 
68.285139 
64.125180 
61.878826 
62.262248 
63.468922 
64.563986 
59.621957 
59.572057 
62.193884 
62.272401 
60.789413 
64.657892 
62.798736 
61.792357 
63.135821 
64.680195 
64.009189 
61.609610 
63.612519 
65.584876 
65.488042 
65.714464 
64.828127 
64.765025 
66.209315 
67.240478 
67.259721 
68.687106 
69.443706 
68.702496 
68.102908 
68.961104 
69.403461 
70.335273 
70.980449 
70.254012 
69.162130 
69.392387 
69.668911 
68.908010 
64.862804 
59.487204 
57.970512 
59.733742 
62.651494 
64.179725 
65.762016 
66.875919 
67.342912 
67.664575 
67.470085 
67.692438 
68.216062 
68.094474 
67.449166 
66.777173 
67.225044 
67.436246 
67.390800 
67.409678 
67.260398 
66.814616 
66.585091 
66.656403 
66.803166 
66.980317 
66.671164 
65.979250 
65.343692 
65.042749 
64.349020 
62.897316 
61.266374 
59.524203 
58.775705 
64.808494 
74.368419 
77.684127 
76.543487 
74.741545 
73.220476 
72.355148 
71.765319 
71.090093 
70.420341 
69.951080 
69.360321 
68.770807 
68.206534 
67.557548 
67.065357 
66.494490 
65.688901 
64.591119 
63.385046 
61.885567 
59.720325 
56.611731 
52.418276 
50.319257 
52.057347 
52.977720 
50.434777 
47.426951 
48.095448 
53.823627 
61.631796 
67.287989 
69.638325 
69.892774 
69.284437 
68.117227 
66.207722 
63.456554 
59.662010 
54.390037 
47.925218 
41.266029 
36.402020 
38.421988 
49.960323 
63.942871 
72.358819 
75.384185 
76.002950 
75.255940 
75.706388 
77.057593 
76.316777 
73.408406 
68.670190 
61.087761 
51.148946 
42.442258 
41.441977 
50.518387 
64.336015 
74.448036 
78.866576 
80.514108 
81.125016 
81.444105 
81.465485 
81.281295 
80.906086 
80.845175 
80.872676 
80.832587 
80.528620 
80.285445 
79.986553 
79.685624 
79.348045 
78.891235 
78.109507 
76.824584 
74.519367 
71.686512 
72.005476 
76.679750 
80.574863 
82.008193 
82.585746 
82.949119 
82.868977 
82.745948 
82.630529 
82.154682 
80.966729 
77.669242 
72.934204 
71.703608 
74.442851 
77.265836 
78.895896 
79.785992 
80.280398 
80.619175 
80.885805 
81.183292 
81.244075 
81.169200 
81.206478 
81.323045 
81.378226 
81.420126 
81.527761 
81.534195 
81.468807 
81.412727 
81.417936 
81.401962 
81.303959 
81.188191 
80.973040 
80.830283 
80.134918 
78.133520 
75.965533 
77.770754 
80.763600 
81.634432 
81.855092 
81.792694 
81.551133 
81.163937 
80.694360 
79.613836 
77.599446 
77.013235 
78.547912 
80.165080 
81.491135 
81.982982 
81.962139 
81.797155 
81.608371 
81.364264 
81.127421 
80.613794 
79.548445 
78.927645 
79.955572 
81.204307 
81.651995 
81.718740 
81.729573 
81.740937 
81.680097 
81.408813 
81.114947 
80.837047 
80.500445 
80.228173 
80.061198 
79.837439 
79.600948 
79.360748 
79.213299 
79.172148 
79.325497 
79.584064 
79.865189 
80.046730 
80.178841 
79.962059 
79.277115 
78.489844 
78.316969 
78.817844 
79.393614 
79.747938 
80.008795 
80.180448 
80.289438 
80.321163 
80.367945 
80.370864 
80.296742 
80.150815 
79.931924 
79.713051 
79.656786 
79.624849 
79.605568 
79.423386 
79.149106 
78.843202 
78.530468 
78.149670 
77.669282 
76.978818 
75.872743 
74.284273 
72.259295 
69.528644 
66.235131 
65.026881 
69.195736 
75.786395 
79.690707 
80.646313 
80.346557 
79.770954 
79.118201 
78.439995 
77.622475 
76.498217 
75.040829 
73.062475 
70.579356 
68.005091 
66.181035 
66.385877 
69.260670 
73.252308 
76.356525 
78.335703 
79.785152 
80.978486 
82.687264 
84.213575 
84.874603 
85.138413 
85.138639 
84.966952 
84.882352 
84.829981 
84.747597 
84.647123 
84.549990 
84.354995 
84.267757 
84.269424 
84.123239 
83.913900 
83.667960 
83.434965 
83.231135 
82.909709 
82.485603 
81.639803 
80.124172 
78.146474 
78.119978 
80.513989 
82.380740 
82.989953 
83.042077 
82.885749 
82.679221 
82.412630 
82.047200 
81.462343 
80.562204 
79.609056 
79.330203 
79.891479 
80.726258 
81.222390 
81.268750 
81.293264 
81.451203 
81.600964 
81.894484 
82.208372 
82.350322 
82.307490 
82.214540 
82.016093 
81.794356 
81.512096 
81.364600 
81.480309 
81.789414 
82.247416 
82.779163 
83.188937 
83.389661 
83.328411 
83.122268 
82.868515 
82.638594 
82.473574 
82.451944 
82.346384 
82.028562 
81.822467 
81.704306 
81.379703 
80.876365 
80.254351 
79.441530 
78.729203 
78.767139 
79.370770 
80.022894 
80.467070 
80.783249 
80.969277 
80.976355 
80.909792 
80.865633 
80.777800 
80.624957 
80.347746 
80.024018 
79.783546 
79.504252 
78.993393 
78.515850 
78.051393 
77.576533 
77.174921 
76.614768 
75.797380 
74.866743 
73.662155 
71.967297 
69.412703 
65.731557 
61.699557 
61.143379 
67.409251 
76.157178 
79.809577 
80.398291 
79.875421 
78.750749 
77.239573 
75.745372 
74.722186 
73.302781 
70.728136 
67.140155 
62.698452 
57.532535 
52.954409 
49.860850 
49.832538 
53.226419 
58.928856 
63.791206 
66.170596 
70.210201 
75.645889 
79.739896 
81.312138 
81.402899 
81.007911 
80.029460 
78.059137 
75.811838 
74.942538 
77.089434 
80.254202 
81.248134 
81.273243 
81.442130 
81.480781 
81.394726 
81.457626 
81.531382 
81.085970 
80.713559 
80.398998 
79.213863 
76.892437 
73.580605 
71.175278 
71.943316 
74.541443 
76.338728 
77.641202 
79.559711 
80.058242 
79.630264 
78.947013 
78.246324 
77.619834 
77.608275 
77.323513 
76.635198 
75.247966 
73.858705 
73.186041 
71.360468 
68.748401 
65.981649 
63.392013 
60.590750 
57.893685 
58.386595 
65.913905 
71.220753 
75.440607 
76.880266 
77.545516 
77.224311 
76.095809 
74.318980 
72.717858 
71.297484 
69.322009 
66.860906 
64.241337 
61.295114 
57.731764 
53.749629 
50.321766 
53.200194 
63.319440 
67.775939 
73.544679 
78.595990 
82.281245 
85.450947 
85.680036 
86.125147 
86.440683 
86.474554 
86.844438 
87.195557 
86.746527 
86.270544 
85.980093 
85.307365 
84.360869 
84.179254 
83.921162 
84.236389 
84.196103 
83.499743 
82.708437 
81.935636 
80.581211 
79.188645 
78.601668 
77.897150 
75.679313 
73.197387 
70.414394 
70.069128 
74.126139 
75.897121 
75.354764 
74.472345 
73.456336 
72.076304 
70.704707 
69.393872 
68.062289 
66.671594 
65.701088 
65.305911 
65.225770 
65.090261 
64.467788 
64.056261 
65.100848 
67.630489 
69.817289 
70.160707 
68.884252 
65.757573 
61.692522 
58.756804 
61.466753 
67.460856 
70.805795 
74.866142 
79.615853 
81.634760 
83.112685 
84.319989 
84.980616 
85.430685 
86.898095 
88.578058 
89.112055 
89.338467 
89.149903 
88.636274 
88.704692 
89.032621 
88.534751 
88.278317 
89.070870 
89.167631 
89.278131 
89.180035 
89.191840 
89.391745 
89.075792 
88.635683 
88.799102 
88.778938 
88.603720 
88.699140 
88.426397 
87.748063 
87.141042 
87.186279 
87.823090 
87.798001 
88.300449 
88.532147 
88.228919 
87.683110 
87.533379 
87.751236 
88.421550 
88.144253 
87.994464 
88.230706 
88.353080 
88.070536 
87.275468 
86.431517 
86.553796 
87.543780 
87.570724 
87.250543 
87.314449 
87.262039 
87.067620 
86.865843 
86.757727 
87.352240 
88.052500 
87.797907 
87.750882 
87.840083 
87.760692 
87.546326 
87.160805 
87.228139 
87.917858 
88.354071 
88.177989 
87.748304 
87.539439 
87.396811 
87.469400 
87.413061 
87.039309 
86.805645 
86.791386 
87.063585 
87.392441 
87.497658 
87.455236 
87.488326 
87.591480 
87.496123 
87.687724 
87.652486 
87.379969 
87.314373 
87.644963 
87.448832 
87.307927 
87.258206 
87.370745 
87.437496 
87.374647 
87.201034 
87.128844 
87.049404 
87.280172 
87.361150 
87.133054 
86.899499 
86.568306 
86.179070 
85.884373 
85.609851 
85.621301 
86.259469 
86.643714 
86.755235 
86.860737 
86.865377 
86.747686 
86.394317 
86.639914 
86.823316 
86.902449 
86.952993 
86.843921 
86.763611 
86.673233 
86.572528 
86.710127 
86.877444 
86.777938 
86.409551 
85.970685 
86.038414 
86.465810 
86.498706 
86.428089 
86.149952 
85.459514 
84.668391 
84.364448 
84.898289 
85.654697 
86.093333 
86.592863 
86.720593 
86.561923 
86.556844 
86.882243 
86.720076 
86.329776 
86.189899 
85.971857 
85.842350 
85.908377 
86.188049 
86.061128 
85.598084 
85.212817 
84.910485 
84.510944 
84.027138 
83.911972 
84.026639 
84.502323 
85.289870 
86.120151 
86.742359 
86.577048 
86.075143 
86.077270 
86.401290 
86.597700 
86.205110 
86.079557 
86.020094 
85.722105 
85.853857 
86.187161 
86.038966 
85.780780 
85.626007 
85.213063 
84.246103 
84.414665 
85.246650 
85.810541 
86.456884 
86.936304 
86.751969 
86.351364 
86.038623 
85.893167 
86.150682 
86.151767 
85.858324 
85.905944 
85.859326 
86.345340 
86.417798 
85.726554 
85.604399 
86.094362 
86.530583 
86.737145 
86.256713 
86.114872 
86.146155 
85.949301 
85.815574 
85.801465 
85.513690 
85.580112 
85.888405 
86.406678 
86.338638 
85.713293 
85.535710 
86.258007 
86.280155 
85.862874 
85.636642 
85.764434 
86.107510 
86.125487 
85.709877 
85.426235 
85.413819 
85.806428 
86.386744 
86.497050 
86.101264 
85.827621 
85.878766 
85.703488 
85.655451 
85.848842 
85.785598 
85.987207 
86.063974 
85.600842 
85.384868 
85.738033 
86.015406 
86.188279 
86.294301 
86.349753 
86.264278 
85.972705 
86.067531 
86.248003 
86.269939 
86.007540 
85.766313 
85.819974 
86.064316 
86.129287 
86.064978 
86.187411 
86.150977 
86.046934 
86.322342 
86.404310 
86.137115 
85.991835 
86.089339 
86.162184 
85.953834 
85.770323 
85.773285 
85.775029 
85.948226 
86.067202 
85.904045 
85.908579 
85.770887 
85.811566 
86.148489 
86.043895 
86.181210 
86.630735 
87.353491 
87.658596 
86.359286 
85.291087 
85.343636 
85.491059 
85.776249 
85.842545 
85.691840 
86.057480 
86.221054 
86.087273 
86.307615 
86.341278 
86.105666 
86.339063 
85.965049 
85.732131 
86.014645 
86.199575 
85.893558 
85.663139 
85.803464 
85.728245 
85.818676 
85.927177 
85.773048 
85.632083 
85.632861 
85.734783 
85.728856 
85.919243 
85.989285 
85.921116 
85.891324 
85.863036 
85.687307 
85.684328 
85.674540 
85.558107 
85.428491 
85.698123 
85.873799 
85.659337 
85.560648 
85.906636 
85.879291 
85.866248 
86.090548 
85.997740 
85.842002 
85.780148 
85.537638 
85.455008 
85.498939 
85.626913 
85.835446 
85.886273 
85.806749 
85.710961 
85.592602 
85.605942 
85.717632 
85.769410 
85.898621 
85.981395 
86.075351 
85.898407 
85.857585 
85.910569 
85.894673 
85.985215 
86.021719 
86.081487 
86.013621 
85.865047 
85.727281 
85.594395 
85.560130 
85.687595 
85.755075 
85.766143 
85.799113 
85.705972 
85.662210 
85.652507 
85.520472 
85.538871 
85.602674 
85.851879 
86.282314 
86.320750 
86.053122 
85.996177 
86.374073 
86.653703 
86.715032 
86.611225 
86.445746 
86.590382 
86.229817 
85.715302 
85.749921 
86.109533 
86.223090 
85.906957 
86.247139 
86.808699 
87.242014 
87.332359 
86.758171 
86.353833 
86.354699 
86.441792 
86.261650 
86.038334 
86.078365 
86.124731 
86.102916 
86.140253 
86.216618 
86.175258 
86.115783 
86.168715 
86.163662 
86.083222 
85.914512 
85.964886 
86.180509 
86.194857 
86.041035 
85.816137 
85.687629 
85.751055 
85.813578 
85.962474 
86.079972 
86.081902 
86.009305 
85.925291 
86.109066 
86.300398 
86.304063 
86.302935 
86.251606 
86.232230 
86.230800 
86.257231 
86.250356 
86.128162 
86.090099 
86.196131 
86.314119 
86.206498 
86.224530 
86.325778 
86.281170 
86.276514 
86.257108 
86.123982 
86.138406 
86.172540 
86.146293 
86.220918 
86.256684 
86.218741 
86.136332 
86.221333 
86.283992 
86.156539 
85.979462 
85.970541 
85.992106 
85.951872 
85.991993 
85.979630 
85.786421 
85.795842 
85.808141 
85.671519 
85.575481 
85.703553 
85.608698 
85.483866 
85.641194 
85.798446 
85.686095 
85.587880 
85.620922 
85.758516 
85.669815 
85.567959 
85.550196 
85.539565 
85.449971 
85.577557 
85.655397 
85.614889 
85.566716 
85.594258 
85.774699 
85.918673 
85.719885 
85.446771 
85.554248 
85.791734 
85.684388 
85.449904 
85.320365 
85.410905 
85.505885 
85.444930 
85.425279 
85.352098 
85.308428 
85.534532 
85.619283 
85.471507 
85.391830 
85.340648 
85.372503 
85.415449 
85.528027 
85.707802 
85.696286 
85.725564 
85.819783 
85.835082 
85.804385 
85.796315 
85.814038 
85.716179 
85.617351 
85.542933 
85.567023 
85.727076 
85.730448 
85.660365 
85.718412 
85.766100 
85.824979 
85.933143 
85.996706 
85.992924 
85.840676 
85.829225 
85.943126 
85.995177 
86.042924 
85.955377 
85.796504 
85.904598 
86.033470 
85.963519 
85.927875 
85.927270 
85.859390 
85.854967 
85.862707 
85.868850 
85.857738 
86.001406 
86.292202 
86.356222 
86.230895 
86.192315 
86.197151 
86.209285 
86.330168 
86.358804 
86.358449 
86.402566 
86.424957 
86.365279 
86.291659 
86.241216 
86.110790 
86.131418 
86.194120 
86.113845 
86.077442 
86.041336 
85.912647 
85.850355 
85.881542 
85.871016 
85.834646 
85.833078 
85.814749 
85.739872 
85.709754 
85.801320 
85.838128 
85.897029 
85.756292 
85.616365 
85.698331 
85.777751 
85.765330 
85.853245 
85.984302 
86.015516 
86.046120 
86.111139 
86.200513 
86.212752 
86.183942 
86.144986 
86.048021 
86.093591 
86.101151 
86.004193 
85.990672 
85.975909 
85.944238 
86.027480 
86.058561 
85.961996 
85.890768 
85.971949 
86.056082 
86.160789 
86.203202 
86.140443 
86.110378 
86.176989 
86.156413 
86.061649 
86.071538 
86.109952 
86.121079 
86.140651 
86.068162 
85.980618 
86.023002 
86.142442 
86.074970 
85.946844 
85.980154 
86.133567 
86.101949 
85.956030 
85.847426 
85.939193 
86.107635 
86.244314 
86.218537 
86.082135 
86.148722 
86.200791 
85.984677 
85.754115 
85.769072 
85.686918 
85.572868 
85.645829 
85.747987 
85.762770 
85.807655 
85.785614 
85.711277 
85.712766 
85.662456 
85.516365 
85.462965 
85.424487 
85.331927 
85.308537 
85.273180 
85.180455 
85.211780 
85.273682 
85.271277 
85.251050 
85.208256 
85.233897 
85.264271 
85.371930 
85.357460 
85.289854 
85.262417 
85.142193 
85.068828 
85.088911 
85.045916 
85.034140 
85.052373 
85.030045 
85.072203 
85.102397 
85.162983 
85.230017 
85.171873 
85.149813 
85.211503 
85.336998 
85.327271 
85.189424 
85.062433 
85.092955 
85.228300 
85.111973 
84.956036 
84.842894 
84.691630 
84.704108 
84.791263 
84.816594 
84.618891 
84.445098 
84.280013 
84.136890 
84.056832 
84.039284 
84.085690 
84.121858 
84.158544 
84.388619 
84.602502 
84.667771 
84.504977 
84.381952 
84.425988 
84.445743 
84.372993 
84.416791 
84.460139 
84.368542 
84.313057 
84.326905 
84.315670 
84.191945 
84.143080 
84.006442 
83.657911 
83.350451 
83.271002 
83.236835 
83.070823 
82.855360 
82.879379 
82.791751 
82.484677 
82.391733 
82.515506 
82.497101 
82.352573 
82.503406 
82.855784 
83.070670 
82.994410 
82.653289 
82.159775 
81.425308 
80.601760 
79.827668 
79.321107 
79.157945 
79.328438 
79.997333 
81.049138 
81.837570 
82.473030 
82.981577 
83.254831 
83.600651 
83.799951 
83.755866 
83.506649 
83.113335 
82.793920 
82.800454 
83.254243 
83.944426 
84.297535 
84.534971 
84.860056 
84.805025 
84.570956 
84.577182 
84.720862 
84.741043 
84.688352 
84.654701 
84.852124 
85.030990 
84.979770 
84.869875 
84.879897 
84.924605 
84.938677 
84.765949 
84.550466 
84.547034 
84.690225 
84.958775 
84.894237 
84.693538 
84.563857 
84.491025 
84.560752 
84.472930 
84.508848 
84.551139 
84.508068 
84.441592 
84.216451 
84.194466 
84.339515 
84.417107 
84.378437 
84.211976 
83.923636 
83.779029 
83.739536 
83.636324 
83.338131 
83.207427 
83.456583 
83.487101 
83.434663 
83.351539 
83.457278 
83.778038 
83.887331 
83.840412 
83.681734 
83.798834 
84.178020 
84.265328 
84.018445 
84.034244 
84.119167 
84.150067 
84.023579 
83.817225 
83.902220 
83.934634 
83.865602 
83.825789 
83.776405 
83.771535 
83.900248 
84.082021 
84.050889 
83.824950 
83.842739 
84.100621 
83.911037 
83.510482 
83.596102 
83.858561 
84.024688 
84.253124 
84.126067 
84.079168 
84.207573 
84.182709 
83.991654 
83.872932 
83.822645 
83.722447 
83.703262 
83.692274 
83.832588 
83.861860 
83.938451 
84.088028 
83.802301 
83.486493 
83.392242 
83.577693 
83.805790 
83.798388 
83.621054 
83.371734 
83.303418 
83.373843 
83.215078 
83.011619 
82.812875 
82.801588 
82.854663 
82.739355 
82.755978 
82.319059 
81.920457 
81.937410 
82.049330 
82.017960 
81.967642 
81.950039 
81.773621 
81.629569 
81.544770 
81.458837 
81.374518 
81.221327 
81.096215 
80.934825 
80.882187 
80.805084 
80.674003 
80.393386 
80.118421 
79.803197 
79.381340 
78.887372 
78.414091 
77.808265 
76.813284 
75.589372 
74.325457 
72.983495 
71.460492 
69.414578 
66.973842 
64.517140 
62.461900 
60.901433 
60.760292 
63.304923 
68.333899 
74.135749 
78.952925 
82.081869 
83.705569 
84.362492 
84.817489 
85.249505 
85.638740 
85.941949 
86.099391 
86.303393 
86.345804 
86.380034 
86.444536 
86.381152 
86.410641 
86.527023 
86.513760 
86.302619 
86.243552 
86.306244 
86.085551 
85.879044 
85.833759 
85.780343 
85.832520 
85.926119 
85.730989 
85.426476 
85.235514 
85.178636 
85.027323 
84.832436 
84.585215 
84.388049 
84.196055 
83.666635 
83.276441 
83.134222 
82.900653 
82.536305 
81.807118 
80.533879 
79.509243 
78.351770 
76.669416 
73.856968 
70.220896 
66.783503 
65.409926 
67.623309 
72.548968 
77.682799 
80.985701 
82.963726 
84.438698 
85.414371 
85.670798 
85.512420 
85.522527 
85.727319 
85.653326 
85.782998 
85.994918 
85.952617 
86.112728 
86.304169 
86.449602 
86.922684 
87.159029 
87.031218 
86.942851 
86.739091 
86.681074 
86.575467 
86.225704 
86.210342 
86.479039 
86.603792 
86.572219 
86.674979 
86.786456 
86.909595 
86.802407 
86.486674 
86.216372 
85.923221 
85.863548 
85.933814 
86.361955 
86.519233 
86.330967 
86.124082 
86.150484 
86.590558 
86.565118 
86.186835 
85.661871 
85.531491 
85.902822 
86.069338 
86.053754 
86.264369 
86.422238 
86.483788 
85.966409 
85.756030 
85.726073 
85.360988 
85.106704 
85.730469 
85.935597 
85.747160 
85.994200 
86.445779 
86.393565 
86.200735 
85.997950 
85.400266 
84.983174 
85.419451 
85.785305 
85.425520 
85.494679 
85.573269 
85.641439 
85.779135 
85.834208 
85.719620 
85.426459 
85.491026 
86.291927 
86.084900 
85.617276 
85.469505 
85.364972 
85.705039 
86.142094 
85.978085 
85.232802 
84.573347 
85.233817 
86.393696 
85.718204 
85.625490 
85.717840 
85.429171 
85.491812 
85.292606 
84.666950 
83.752177 
83.680921 
84.420401 
85.121096 
85.033138 
84.826970 
85.057626 
85.245416 
85.608526 
85.461456 
85.180926 
84.995707 
84.979027 
85.286457 
84.580239 
84.147034 
86.354388 
86.110552 
85.745246 
85.874091 
85.478076 
84.707278 
84.489350 
85.162241 
85.741348 
85.438818 
85.230829 
85.272813 
85.217465 
85.189272 
85.245792 
84.909238 
84.595979 
83.998707 
83.907222 
84.752137 
84.822445 
84.845064 
84.877089 
84.583590 
84.178546 
84.140814 
84.246991 
84.282557 
83.766025 
83.362983 
83.090333 
84.091167 
84.600796 
83.751350 
83.055558 
83.007999 
84.423422 
83.984055 
83.084091 
83.295818 
84.518240 
84.629414 
84.474125 
84.648663 
84.877983 
84.511445 
84.626305 
84.954966 
84.551928 
84.892619 
85.125044 
84.848048 
84.678155 
84.606205 
84.827877 
84.656085 
84.721725 
85.069886 
84.762330 
84.669333 
84.867738 
84.465366 
83.964859 
83.921140 
83.669756 
84.592457 
84.951055 
84.223712 
84.615108 
84.839945 
84.325508 
83.674289 
83.248458 
84.236304 
83.857593 
84.327842 
85.477731 
84.728964 
84.425131 
84.409678 
84.146403 
83.862809 
83.375238 
83.318766 
84.008211 
84.488010 
84.559876 
84.475747 
84.356327 
84.071331 
83.577872 
82.801589 
83.880429 
84.880153 
84.692884 
84.344916 
83.817819 
83.534745 
84.082327 
84.210565 
84.172406 
85.011579 
84.576285 
84.703631 
84.421399 
83.752286 
83.832401 
84.413471 
84.600782 
85.205087 
84.799613 
84.172660 
84.388129 
84.553538 
84.115303 
83.756140 
84.469010 
84.720139 
84.545999 
84.855239 
85.064498 
84.987187 
84.733201 
84.556395 
84.314949 
84.303964 
84.590308 
84.770274 
84.296118 
84.227710 
84.314760 
84.243332 
84.502778 
84.901031 
85.074002 
84.825934 
84.985613 
84.886649 
84.595201 
84.401692 
84.097048 
84.238357 
84.638290 
84.760375 
84.781174 
84.862999 
85.045531 
84.997705 
84.973853 
84.761868 
84.674244 
84.914663 
84.856232 
84.779033 
84.954545 
85.294943 
85.557249 
85.123549 
84.550127 
84.548222 
84.802934 
84.855981 
84.853007 
84.995593 
85.216745 
85.279032 
85.364198 
84.935653 
84.600429 